# Electronic stopping for Si in Si
155
E(eV) Si
1.1     0.1168
1.2     0.1168
1.3     0.1215
1.4     0.1261
1.5     0.1305
1.6     0.1348
1.7     0.1390
1.8     0.1430
2     0.1507
2.25     0.1599
2.49999     0.1685
2.74999     0.1768
2.99999     0.1846
3.24999     0.1922
3.49999     0.1994
3.74999     0.2064
3.99999     0.2132
4.49999     0.2261
4.99999     0.2383
5.49999     0.2500
5.99999     0.2611
6.49999     0.2718
6.99999     0.2820
7.99999     0.3015
8.99999     0.3198
9.99999     0.3371
10.9999     0.3535
11.9999     0.3692
12.9999     0.3843
13.9999     0.3988
14.9999     0.4128
15.9999     0.4264
16.9999     0.4395
17.9999     0.4522
19.9999     0.4767
22.4999     0.5056
24.9999     0.5330
27.4999     0.5590
29.9999     0.5838
32.4999     0.6077
34.9999     0.6306
37.4999     0.6527
39.9999     0.6741
44.9999     0.7150
49.9999     0.7537
54.9999     0.7905
59.9999     0.8256
64.9999     0.8594
69.9999     0.8918
79.9999     0.9534
89.9999     1.011
99.9999     1.066
110     1.118
120     1.168
130     1.215
139.999     1.261
149.999     1.305
159.999     1.348
169.999     1.390
179.999     1.430
199.999     1.507
224.999     1.599
249.999     1.685
274.999     1.768
299.999     1.846
324.999     1.922
349.999     1.994
374.999     2.064
399.999     2.132
449.999     2.261
499.999     2.383
549.999     2.500
599.999     2.611
649.999     2.718
699.999     2.820
799.999     3.015
899.999     3.198
999.999     3.371
1100.00     3.535
1200.00     3.692
1300.00     3.843
1400.00     3.988
1500.00     4.128
1600.00     4.264
1700.00     4.395
1800.00     4.522
2000.00     4.767
2250.00     5.056
2500.00     5.330
2750.00     5.590
3000.00     5.838
3250.00     6.077
3500.00     6.306
3750.00     6.527
4000.00     6.741
4500.00     7.150
5000.00     7.537
5500.00     7.905
6000.00     8.256
6500.00     8.594
7000.00     8.918
8000.00     9.534
9000.00     10.11
10000.00     10.66
11000.00     11.180
12000.00     11.680
13000.00     12.150
14000.00     12.610
15000.00     13.050
16000.00     13.480
17000.00     13.900
18000.00     14.300
20000.00     15.070
22500.00     15.990
25000.00     16.850
27500.00     17.680
30000.00     18.460
32500.00     19.220
35000.00     19.940
37500.00     20.640
40000.00     21.320
45000.00     22.610
50000.00     23.830
55000.00     25.000
60000.00     26.520
65000.00     28.080
70000.00     29.520
80000.00     32.010
90000.00     34.000
100000.00    35.620
110000.00    36.970
120000.00    38.110
130000.00    39.100
140000.00    39.980
150000.00    40.760
160000.00    41.480
170000.00    42.140
180000.00    42.770
200000.00    43.980
225000.00    45.470
250000.00    47.020
275000.00    48.650
300000.00    50.400
325000.00    52.250
350000.00    54.210
375000.00    56.250
400000.00    58.380
450000.00    62.850
500000.00    67.520
550000.00    72.320
600000.00    77.200
650000.00    82.120
700000.00    87.020
800000.00    96.710
900000.00    106.100
